# wavelength flux
3200.26513 6.15384e-18
3200.85643 6.17993e-18
3201.43770 6.21389e-18
3202.01898 6.25271e-18
3202.61028 6.29800e-18
3203.19155 6.35170e-18
3203.77283 6.41226e-18
3204.35410 6.47937e-18
3204.94540 6.55350e-18
3205.52668 6.63619e-18
3206.10795 6.73041e-18
3206.69925 6.84375e-18
3207.28053 6.96701e-18
3207.86180 7.08032e-18
3208.45310 7.15249e-18
3209.03438 7.14840e-18
3209.61565 7.04183e-18
3210.19693 6.84500e-18
3210.78823 6.60483e-18
3211.36950 6.38204e-18
3211.95078 6.24489e-18
3212.54208 6.22609e-18
3213.12335 6.32078e-18
3213.70463 6.47231e-18
3214.28591 6.62851e-18
3214.87720 6.73195e-18
3215.45848 6.76008e-18
3216.03976 6.71549e-18
3216.63105 6.63453e-18
3217.21233 6.54190e-18
3217.79361 6.46162e-18
3218.37488 6.40350e-18
3218.96618 6.36520e-18
3219.54746 6.33618e-18
3220.12873 6.31271e-18
3220.72003 6.29082e-18
3221.30131 6.26684e-18
3221.88258 6.23803e-18
3222.47388 6.20132e-18
3223.05516 6.15007e-18
3223.63643 6.08543e-18
3224.21771 6.01414e-18
3224.80901 5.95046e-18
3225.39028 5.90763e-18
3225.97156 5.89947e-18
3226.56286 5.92764e-18
3227.14413 5.98466e-18
3227.72541 6.05513e-18
3228.30668 6.12423e-18
3228.89798 6.18108e-18
3229.47926 6.22338e-18
3230.06053 6.25872e-18
3230.65183 6.29611e-18
3231.23311 6.34766e-18
3231.81438 6.41459e-18
3232.39566 6.48956e-18
3232.98696 6.55279e-18
3233.56823 6.58680e-18
3234.14951 6.57186e-18
3234.74081 6.50776e-18
3235.32208 6.40813e-18
3235.90336 6.30127e-18
3236.49466 6.21130e-18
3237.07593 6.15900e-18
3237.65721 6.15296e-18
3238.23849 6.18930e-18
3238.82978 6.25901e-18
3239.41106 6.35694e-18
3239.99234 6.47596e-18
3240.58363 6.60746e-18
3241.16491 6.74177e-18
3241.74619 6.86874e-18
3242.32746 6.97765e-18
3242.91876 7.06038e-18
3243.50004 7.11105e-18
3244.08131 7.12685e-18
3244.67261 7.10468e-18
3245.25389 7.04306e-18
3245.83516 6.94453e-18
3246.41644 6.81524e-18
3247.00774 6.66387e-18
3247.58901 6.49356e-18
3248.17029 6.31428e-18
3248.76159 6.14336e-18
3249.34286 6.00704e-18
3249.92414 5.93091e-18
3250.51544 5.95005e-18
3251.09671 6.06662e-18
3251.67799 6.25905e-18
3252.25926 6.47448e-18
3252.85056 6.66523e-18
3253.43184 6.78275e-18
3254.01311 6.81464e-18
3254.60441 6.77658e-18
3255.18569 6.70713e-18
3255.76696 6.63765e-18
3256.34824 6.59182e-18
3256.93954 6.57834e-18
3257.52081 6.58696e-18
3258.10209 6.60594e-18
3258.69339 6.62740e-18
3259.27466 6.64531e-18
3259.85594 6.65549e-18
3260.43722 6.65714e-18
3261.02851 6.64739e-18
3261.60979 6.62206e-18
3262.19107 6.58341e-18
3262.78236 6.53813e-18
3263.36364 6.49724e-18
3263.94492 6.47120e-18
3264.52619 6.46822e-18
3265.11749 6.49030e-18
3265.69877 6.53285e-18
3266.28004 6.58910e-18
3266.87134 6.65419e-18
3267.45262 6.72244e-18
3268.03389 6.78782e-18
3268.62519 6.84421e-18
3269.20647 6.88555e-18
3269.78774 6.90552e-18
3270.36902 6.90146e-18
3270.96032 6.87369e-18
3271.54159 6.82602e-18
3272.12287 6.75910e-18
3272.71417 6.67479e-18
3273.29544 6.58253e-18
3273.87672 6.49764e-18
3274.45799 6.43762e-18
3275.04929 6.42756e-18
3275.63057 6.47562e-18
3276.21184 6.57132e-18
3276.80314 6.67978e-18
3277.38442 6.76709e-18
3277.96569 6.79223e-18
3278.54697 6.74491e-18
3279.13827 6.63690e-18
3279.71954 6.50943e-18
3280.30082 6.39622e-18
3280.89212 6.33048e-18
3281.47339 6.32218e-18
3282.05467 6.36245e-18
3282.64597 6.42822e-18
3283.22724 6.50246e-18
3283.80852 6.57142e-18
3284.38980 6.62768e-18
3284.98109 6.67244e-18
3285.56237 6.70713e-18
3286.14365 6.73300e-18
3286.73494 6.74849e-18
3287.31622 6.75027e-18
3287.89750 6.73221e-18
3288.47877 6.68857e-18
3289.07007 6.61288e-18
3289.65135 6.51019e-18
3290.23262 6.39360e-18
3290.82392 6.28343e-18
3291.40520 6.20005e-18
3291.98647 6.15837e-18
3292.57777 6.16069e-18
3293.15905 6.19559e-18
3293.74032 6.24820e-18
3294.32160 6.30388e-18
3294.91290 6.35304e-18
3295.49417 6.39083e-18
3296.07545 6.41968e-18
3296.66675 6.44083e-18
3297.24802 6.45668e-18
3297.82930 6.46449e-18
3298.41057 6.45848e-18
3299.00187 6.42941e-18
3299.58315 6.36700e-18
3300.16442 6.26435e-18
3300.75572 6.12840e-18
3301.33700 5.97838e-18
3301.91827 5.83844e-18
3302.49955 5.73591e-18
3303.09085 5.68440e-18
3303.67212 5.68294e-18
3304.25340 5.71055e-18
3304.84470 5.74775e-18
3305.42597 5.77294e-18
3306.00725 5.77743e-18
3306.59855 5.76184e-18
3307.17982 5.73936e-18
3307.76110 5.71842e-18
3308.34238 5.70703e-18
3308.93367 5.70816e-18
3309.51495 5.72047e-18
3310.09623 5.73959e-18
3310.68752 5.76554e-18
3311.26880 5.79580e-18
3311.85008 5.82473e-18
3312.43135 5.84317e-18
3313.02265 5.84179e-18
3313.60393 5.80596e-18
3314.18520 5.73603e-18
3314.77650 5.64316e-18
3315.35778 5.55315e-18
3315.93905 5.48971e-18
3316.52033 5.47774e-18
3317.11163 5.51918e-18
3317.69290 5.59891e-18
3318.27418 5.68690e-18
3318.86548 5.75808e-18
3319.44675 5.79288e-18
3320.02803 5.78330e-18
3320.61933 5.73532e-18
3321.20060 5.65740e-18
3321.78188 5.54954e-18
3322.36315 5.42215e-18
3322.95445 5.29329e-18
3323.53573 5.19072e-18
3324.11700 5.14261e-18
3324.70830 5.18296e-18
3325.28958 5.30999e-18
3325.87085 5.49692e-18
3326.45213 5.69067e-18
3327.04343 5.84202e-18
3327.62470 5.91039e-18
3328.20598 5.88722e-18
3328.79728 5.79554e-18
3329.37855 5.67020e-18
3329.95983 5.54233e-18
3330.54111 5.43262e-18
3331.13240 5.35057e-18
3331.71368 5.28866e-18
3332.29496 5.24228e-18
3332.88625 5.20751e-18
3333.46753 5.18345e-18
3334.04881 5.17109e-18
3334.64010 5.17425e-18
3335.22138 5.19500e-18
3335.80266 5.23440e-18
3336.38393 5.28930e-18
3336.97523 5.35309e-18
3337.55651 5.41718e-18
3338.13778 5.47496e-18
3338.72908 5.52005e-18
3339.31036 5.54673e-18
3339.89163 5.55031e-18
3340.47291 5.52631e-18
3341.06421 5.46552e-18
3341.64548 5.37229e-18
3342.22676 5.26037e-18
3342.81806 5.15572e-18
3343.39933 5.08318e-18
3343.98061 5.06796e-18
3344.56188 5.11275e-18
3345.15318 5.20302e-18
3345.73446 5.31033e-18
3346.31573 5.40948e-18
3346.90703 5.48169e-18
3347.48831 5.52037e-18
3348.06958 5.53401e-18
3348.66088 5.53260e-18
3349.24216 5.52200e-18
3349.82343 5.50934e-18
3350.40471 5.50218e-18
3350.99601 5.50793e-18
3351.57728 5.53601e-18
3352.15856 5.59869e-18
3352.74986 5.69176e-18
3353.33113 5.79970e-18
3353.91241 5.89605e-18
3354.49369 5.95398e-18
3355.08498 5.95379e-18
3355.66626 5.89578e-18
3356.24754 5.80081e-18
3356.83883 5.69565e-18
3357.42011 5.60617e-18
3358.00139 5.54819e-18
3358.58266 5.52760e-18
3359.17396 5.53562e-18
3359.75524 5.56619e-18
3360.33651 5.61501e-18
3360.92781 5.67498e-18
3361.50909 5.73736e-18
3362.09036 5.79217e-18
3362.68166 5.82816e-18
3363.26294 5.83567e-18
3363.84421 5.81318e-18
3364.42549 5.76650e-18
3365.01679 5.70563e-18
3365.59806 5.63651e-18
3366.17934 5.56761e-18
3366.77064 5.50936e-18
3367.35191 5.47422e-18
3367.93319 5.47450e-18
3368.51446 5.52688e-18
3369.10576 5.63192e-18
3369.68704 5.77856e-18
3370.26831 5.94086e-18
3370.85961 6.09578e-18
3371.44089 6.22036e-18
3372.02216 6.30477e-18
3372.60344 6.34993e-18
3373.19474 6.36513e-18
3373.77601 6.35590e-18
3374.35729 6.32744e-18
3374.94859 6.28348e-18
3375.52986 6.22536e-18
3376.11114 6.15511e-18
3376.70244 6.07730e-18
3377.28371 5.99464e-18
3377.86499 5.90869e-18
3378.44627 5.81924e-18
3379.03756 5.72468e-18
3379.61884 5.62110e-18
3380.20012 5.51691e-18
3380.79141 5.42847e-18
3381.37269 5.37892e-18
3381.95397 5.39550e-18
3382.53524 5.49383e-18
3383.12654 5.66357e-18
3383.70782 5.86711e-18
3384.28909 6.06095e-18
3384.88039 6.19604e-18
3385.46167 6.24927e-18
3386.04294 6.22063e-18
3386.62422 6.14324e-18
3387.21552 6.04529e-18
3387.79679 5.95813e-18
3388.37807 5.89273e-18
3388.96937 5.84583e-18
3389.55064 5.79721e-18
3390.13192 5.73182e-18
3390.72322 5.63769e-18
3391.30449 5.51767e-18
3391.88577 5.38819e-18
3392.46704 5.27110e-18
3393.05834 5.18960e-18
3393.63962 5.15476e-18
3394.22089 5.16487e-18
3394.81219 5.20055e-18
3395.39347 5.24358e-18
3395.97474 5.27198e-18
3396.55602 5.28056e-18
3397.14732 5.27580e-18
3397.72859 5.27958e-18
3398.30987 5.31024e-18
3398.90117 5.38503e-18
3399.48244 5.50328e-18
3400.06372 5.64992e-18
3400.64500 5.80051e-18
3401.23629 5.93125e-18
3401.81757 6.02717e-18
3402.39885 6.08572e-18
3402.99014 6.12057e-18
3403.57142 6.14580e-18
3404.15270 6.17798e-18
3404.74399 6.22187e-18
3405.32527 6.27358e-18
3405.90655 6.31683e-18
3406.48782 6.33817e-18
3407.07912 6.32368e-18
3407.66040 6.27446e-18
3408.24167 6.20272e-18
3408.83297 6.13023e-18
3409.41425 6.07601e-18
3409.99552 6.05425e-18
3410.57680 6.06935e-18
3411.16810 6.11421e-18
3411.74937 6.17984e-18
3412.33065 6.26451e-18
3412.92195 6.35886e-18
3413.50322 6.44842e-18
3414.08450 6.51213e-18
3414.66577 6.52672e-18
3415.25707 6.46034e-18
3415.83835 6.32425e-18
3416.41962 6.15863e-18
3417.01092 6.03360e-18
3417.59220 6.02001e-18
3418.17347 6.17142e-18
3418.76477 6.48137e-18
3419.34605 6.88550e-18
3419.92732 7.29869e-18
3420.50860 7.63773e-18
3421.09990 7.85141e-18
3421.68117 7.92207e-18
3422.26245 7.88052e-18
3422.85375 7.75152e-18
3423.43502 7.55692e-18
3424.01630 7.31845e-18
3424.59758 7.05738e-18
3425.18887 6.79217e-18
3425.77015 6.54631e-18
3426.35143 6.34207e-18
3426.94272 6.19072e-18
3427.52400 6.09365e-18
3428.10528 6.04540e-18
3428.68655 6.04599e-18
3429.27785 6.08966e-18
3429.85913 6.16479e-18
3430.44040 6.25328e-18
3431.03170 6.33618e-18
3431.61298 6.38745e-18
3432.19425 6.40095e-18
3432.78555 6.38490e-18
3433.36683 6.36685e-18
3433.94810 6.37091e-18
3434.52938 6.42180e-18
3435.12068 6.52124e-18
3435.70195 6.65338e-18
3436.28323 6.78817e-18
3436.87453 6.90162e-18
3437.45580 6.97503e-18
3438.03708 6.99973e-18
3438.61835 6.97962e-18
3439.20965 6.92037e-18
3439.79093 6.81925e-18
3440.37220 6.68657e-18
3440.96350 6.54205e-18
3441.54478 6.41760e-18
3442.12605 6.34499e-18
3442.71735 6.36033e-18
3443.29863 6.46504e-18
3443.87990 6.63582e-18
3444.46118 6.82450e-18
3445.05248 6.98755e-18
3445.63375 7.08947e-18
3446.21503 7.11969e-18
3446.80633 7.09395e-18
3447.38760 7.03599e-18
3447.96888 6.96516e-18
3448.55016 6.89551e-18
3449.14145 6.83550e-18
3449.72273 6.78439e-18
3450.30401 6.74408e-18
3450.89530 6.71851e-18
3451.47658 6.70798e-18
3452.05786 6.71025e-18
3452.63913 6.72027e-18
3453.23043 6.73229e-18
3453.81171 6.74095e-18
3454.39298 6.74604e-18
3454.98428 6.75184e-18
3455.56556 6.76470e-18
3456.14683 6.79130e-18
3456.73813 6.83434e-18
3457.31941 6.89194e-18
3457.90068 6.95612e-18
3458.48196 7.01945e-18
3459.07326 7.07463e-18
3459.65453 7.11749e-18
3460.23581 7.14638e-18
3460.82711 7.16318e-18
3461.40838 7.16720e-18
3461.98966 7.15756e-18
3462.57093 7.13978e-18
3463.16223 7.12383e-18
3463.74351 7.12240e-18
3464.32478 7.15306e-18
3464.91608 7.22341e-18
3465.49736 7.32610e-18
3466.07863 7.43594e-18
3466.65991 7.52679e-18
3467.25121 7.56761e-18
3467.83248 7.54834e-18
3468.41376 7.47535e-18
3469.00506 7.37816e-18
3469.58633 7.28071e-18
3470.16761 7.20750e-18
3470.75891 7.17004e-18
3471.34018 7.16980e-18
3471.92146 7.19796e-18
3472.50274 7.25262e-18
3473.09403 7.32949e-18
3473.67531 7.42009e-18
3474.25659 7.51221e-18
3474.84788 7.59280e-18
3475.42916 7.64404e-18
3476.01044 7.65912e-18
3476.59171 7.64084e-18
3477.18301 7.60544e-18
3477.76429 7.56785e-18
3478.34556 7.54574e-18
3478.93686 7.54352e-18
3479.51814 7.55649e-18
3480.09941 7.56939e-18
3480.68069 7.56786e-18
3481.27199 7.54054e-18
3481.85326 7.49157e-18
3482.43454 7.43898e-18
3483.02584 7.40618e-18
3483.60711 7.42092e-18
3484.18839 7.49348e-18
3484.76966 7.61583e-18
3485.36096 7.75510e-18
3485.94224 7.88010e-18
3486.52351 7.95402e-18
3487.11481 7.96670e-18
3487.69609 7.92683e-18
3488.27736 7.86780e-18
3488.86866 7.81763e-18
3489.44994 7.80346e-18
3490.03121 7.82817e-18
3490.61249 7.87512e-18
3491.20379 7.91495e-18
3491.78506 7.92044e-18
3492.36634 7.87586e-18
3492.95764 7.78183e-18
3493.53891 7.66000e-18
3494.12019 7.53225e-18
3494.70147 7.42025e-18
3495.29276 7.33618e-18
3495.87404 7.28464e-18
3496.45532 7.25904e-18
3497.04661 7.25686e-18
3497.62789 7.27599e-18
3498.20917 7.31143e-18
3498.79044 7.35627e-18
3499.38174 7.40241e-18
3499.96302 7.43895e-18
3500.54429 7.45898e-18
3501.13559 7.46369e-18
3501.71687 7.46317e-18
3502.29814 7.46895e-18
3502.88944 7.49254e-18
3503.47072 7.54012e-18
3504.05199 7.61302e-18
3504.63327 7.70548e-18
3505.22457 7.81368e-18
3505.80584 7.93500e-18
3506.38712 8.06223e-18
3506.97842 8.18521e-18
3507.55969 8.29119e-18
3508.14097 8.36660e-18
3508.72224 8.40091e-18
3509.31354 8.39314e-18
3509.89482 8.35166e-18
3510.47609 8.28868e-18
3511.06739 8.21404e-18
3511.64867 8.13750e-18
3512.22994 8.06803e-18
3512.82124 8.01296e-18
3513.40252 7.98018e-18
3513.98379 7.98037e-18
3514.56507 8.01394e-18
3515.15637 8.07413e-18
3515.73764 8.14554e-18
3516.31892 8.21384e-18
3516.91022 8.26544e-18
3517.49149 8.29668e-18
3518.07277 8.31238e-18
3518.65405 8.32252e-18
3519.24534 8.33503e-18
3519.82662 8.35547e-18
3520.40790 8.38600e-18
3520.99919 8.42401e-18
3521.58047 8.46725e-18
3522.16175 8.51479e-18
3522.74302 8.56469e-18
3523.33432 8.61442e-18
3523.91560 8.66088e-18
3524.49687 8.70003e-18
3525.08817 8.72740e-18
3525.66945 8.74425e-18
3526.25072 8.75591e-18
3526.84202 8.77084e-18
3527.42330 8.79940e-18
3528.00457 8.84689e-18
3528.58585 8.90980e-18
3529.17715 8.97445e-18
3529.75842 9.02619e-18
3530.33970 9.04716e-18
3530.93100 9.03202e-18
3531.51227 8.98542e-18
3532.09355 8.92617e-18
3532.67482 8.87085e-18
3533.26612 8.83785e-18
3533.84740 8.83146e-18
3534.42867 8.84595e-18
3535.01997 8.86531e-18
3535.60125 8.87435e-18
3536.18252 8.86212e-18
3536.76380 8.83097e-18
3537.35510 8.79666e-18
3537.93637 8.77836e-18
3538.51765 8.79980e-18
3539.10895 8.86777e-18
3539.69022 8.97363e-18
3540.27150 9.08705e-18
3540.86280 9.18037e-18
3541.44407 9.22114e-18
3542.02535 9.20358e-18
3542.60663 9.14050e-18
3543.19792 9.06715e-18
3543.77920 9.01290e-18
3544.36048 9.00415e-18
3544.95177 9.04725e-18
3545.53305 9.13059e-18
3546.11433 9.23290e-18
3546.69560 9.33808e-18
3547.28690 9.43312e-18
3547.86818 9.50949e-18
3548.44945 9.56561e-18
3549.04075 9.59917e-18
3549.62203 9.60555e-18
3550.20330 9.58529e-18
3550.78458 9.54281e-18
3551.37588 9.48717e-18
3551.95715 9.42700e-18
3552.53843 9.37123e-18
3553.12973 9.32518e-18
3553.71100 9.29112e-18
3554.29228 9.26888e-18
3554.87355 9.25868e-18
3555.46485 9.26088e-18
3556.04613 9.27635e-18
3556.62740 9.30666e-18
3557.21870 9.35307e-18
3557.79998 9.41982e-18
3558.38125 9.50320e-18
3558.97255 9.59374e-18
3559.55383 9.67431e-18
3560.13510 9.72845e-18
3560.71638 9.73819e-18
3561.30768 9.70327e-18
3561.88895 9.63622e-18
3562.47023 9.56165e-18
3563.06153 9.50186e-18
3563.64280 9.47440e-18
3564.22408 9.48463e-18
3564.80536 9.52442e-18
3565.39665 9.58234e-18
3565.97793 9.64957e-18
3566.55921 9.71869e-18
3567.15050 9.78389e-18
3567.73178 9.84235e-18
3568.31306 9.88992e-18
3568.89433 9.92093e-18
3569.48563 9.93510e-18
3570.06691 9.93597e-18
3570.64818 9.93121e-18
3571.23948 9.92806e-18
3571.82076 9.93287e-18
3572.40203 9.94710e-18
3572.99333 9.96765e-18
3573.57461 9.98936e-18
3574.15588 1.00099e-17
3574.73716 1.00262e-17
3575.32846 1.00346e-17
3575.90973 1.00307e-17
3576.49101 1.00099e-17
3577.08231 9.96175e-18
3577.66358 9.89163e-18
3578.24486 9.81532e-18
3578.82613 9.76152e-18
3579.41743 9.75953e-18
3579.99871 9.83698e-18
3580.57998 9.98801e-18
3581.17128 1.01803e-17
3581.75256 1.03648e-17
3582.33383 1.04896e-17
3582.92513 1.05247e-17
3583.50641 1.04705e-17
3584.08768 1.03661e-17
3584.66896 1.02519e-17
3585.26026 1.01719e-17
3585.84153 1.01448e-17
3586.42281 1.01697e-17
3587.01411 1.02175e-17
3587.59538 1.02666e-17
3588.17666 1.02950e-17
3588.75794 1.02967e-17
3589.34923 1.02780e-17
3589.93051 1.02565e-17
3590.51179 1.02464e-17
3591.10308 1.02575e-17
3591.68436 1.02895e-17
3592.26564 1.03306e-17
3592.84691 1.03671e-17
3593.43821 1.03816e-17
3594.01949 1.03702e-17
3594.60076 1.03402e-17
3595.19206 1.03146e-17
3595.77334 1.03152e-17
3596.35461 1.03687e-17
3596.94591 1.04730e-17
3597.52719 1.06058e-17
3598.10846 1.07241e-17
3598.68974 1.07841e-17
3599.28104 1.07526e-17
3599.86231 1.06364e-17
3600.44359 1.04800e-17
3601.03489 1.03409e-17
3601.61616 1.02825e-17
3602.19744 1.03337e-17
3602.77871 1.04889e-17
3603.37001 1.06943e-17
3603.95129 1.09017e-17
3604.53256 1.10585e-17
3605.12386 1.11442e-17
3605.70514 1.11611e-17
3606.28641 1.11411e-17
3606.86769 1.11048e-17
3607.45899 1.10721e-17
3608.04026 1.10537e-17
3608.62154 1.10521e-17
3609.21284 1.10645e-17
3609.79411 1.10974e-17
3610.37539 1.11498e-17
3610.96669 1.12123e-17
3611.54796 1.12648e-17
3612.12924 1.12870e-17
3612.71052 1.12509e-17
3613.30181 1.11534e-17
3613.88309 1.10102e-17
3614.46437 1.08612e-17
3615.05566 1.07418e-17
3615.63694 1.06879e-17
3616.21822 1.07062e-17
3616.79949 1.07808e-17
3617.39079 1.08770e-17
3617.97207 1.09672e-17
3618.55334 1.10292e-17
3619.14464 1.10531e-17
3619.72592 1.10436e-17
3620.30719 1.10072e-17
3620.88847 1.09404e-17
3621.47977 1.08509e-17
3622.06104 1.07543e-17
3622.64232 1.06758e-17
3623.23362 1.06448e-17
3623.81489 1.07011e-17
3624.39617 1.08308e-17
3624.98747 1.09840e-17
3625.56874 1.10761e-17
3626.15002 1.10114e-17
3626.73129 1.07260e-17
3627.32259 1.02492e-17
3627.90387 9.70298e-18
3628.48514 9.23432e-18
3629.07644 9.01332e-18
3629.65772 9.10975e-18
3630.23899 9.49934e-18
3630.82027 1.00253e-17
3631.41157 1.05476e-17
3631.99284 1.09100e-17
3632.57412 1.10602e-17
3633.16542 1.10191e-17
3633.74669 1.08990e-17
3634.32797 1.07850e-17
3634.90925 1.07548e-17
3635.50054 1.08237e-17
3636.08182 1.09517e-17
3636.66310 1.10710e-17
3637.25439 1.11199e-17
3637.83567 1.10674e-17
3638.41695 1.09190e-17
3639.00824 1.07298e-17
3639.58952 1.05517e-17
3640.17080 1.04419e-17
3640.75207 1.04199e-17
3641.34337 1.04773e-17
3641.92465 1.05679e-17
3642.50592 1.06550e-17
3643.09722 1.07018e-17
3643.67850 1.07012e-17
3644.25977 1.06693e-17
3644.84105 1.06397e-17
3645.43235 1.06425e-17
3646.01362 1.06956e-17
3646.59490 1.07964e-17
3647.18620 1.09176e-17
3647.76747 1.10305e-17
3648.34875 1.11043e-17
3648.93002 1.11267e-17
3649.52132 1.11005e-17
3650.10260 1.10493e-17
3650.68387 1.09907e-17
3651.27517 1.09417e-17
3651.85645 1.09126e-17
3652.43772 1.09079e-17
3653.02902 1.09261e-17
3653.61030 1.09762e-17
3654.19157 1.10598e-17
3654.77285 1.11605e-17
3655.36415 1.12442e-17
3655.94542 1.12740e-17
3656.52670 1.11977e-17
3657.11800 1.10042e-17
3657.69927 1.07178e-17
3658.28055 1.04124e-17
3658.86183 1.01547e-17
3659.45312 1.00204e-17
3660.03440 1.00292e-17
3660.61568 1.01614e-17
3661.20697 1.03509e-17
3661.78825 1.05458e-17
3662.36953 1.06986e-17
3662.96082 1.07907e-17
3663.54210 1.08313e-17
3664.12338 1.08421e-17
3664.70465 1.08359e-17
3665.29595 1.08229e-17
3665.87723 1.08099e-17
3666.45850 1.07978e-17
3667.04980 1.07889e-17
3667.63108 1.07897e-17
3668.21235 1.07999e-17
3668.79363 1.08154e-17
3669.38493 1.08265e-17
3669.96620 1.08236e-17
3670.54748 1.07976e-17
3671.13878 1.07488e-17
3671.72005 1.06855e-17
3672.30133 1.06207e-17
3672.88260 1.05683e-17
3673.47390 1.05363e-17
3674.05518 1.05241e-17
3674.63645 1.05201e-17
3675.22775 1.05128e-17
3675.80903 1.04885e-17
3676.39030 1.04438e-17
3676.98160 1.03831e-17
3677.56288 1.03216e-17
3678.14415 1.02717e-17
3678.72543 1.02455e-17
3679.31673 1.02474e-17
3679.89800 1.02753e-17
3680.47928 1.03214e-17
3681.07058 1.03815e-17
3681.65185 1.04500e-17
3682.23313 1.05205e-17
3682.81441 1.05852e-17
3683.40570 1.06364e-17
3683.98698 1.06645e-17
3684.56826 1.06654e-17
3685.15955 1.06399e-17
3685.74083 1.05951e-17
3686.32211 1.05373e-17
3686.90338 1.04728e-17
3687.49468 1.04077e-17
3688.07596 1.03478e-17
3688.65723 1.02983e-17
3689.24853 1.02651e-17
3689.82981 1.02526e-17
3690.41108 1.02625e-17
3691.00238 1.02931e-17
3691.58366 1.03409e-17
3692.16493 1.04063e-17
3692.74621 1.04844e-17
3693.33751 1.05660e-17
3693.91878 1.06361e-17
3694.50006 1.06801e-17
3695.09136 1.06779e-17
3695.67263 1.06294e-17
3696.25391 1.05476e-17
3696.83518 1.04626e-17
3697.42648 1.04022e-17
3698.00776 1.03924e-17
3698.58903 1.04348e-17
3699.18033 1.05109e-17
3699.76161 1.05902e-17
3700.34288 1.06430e-17
3700.92416 1.06516e-17
3701.51546 1.06149e-17
3702.09673 1.05533e-17
3702.67801 1.04866e-17
3703.26931 1.04358e-17
3703.85058 1.04092e-17
3704.43186 1.04060e-17
3705.02316 1.04115e-17
3705.60443 1.04166e-17
3706.18571 1.04125e-17
3706.76699 1.03933e-17
