# wavelength flux
3988.99653 4.80265e-19
3989.99873 5.12267e-19
3991.00093 5.60500e-19
3992.00313 6.26352e-19
3992.99531 7.03480e-19
3993.99751 7.87185e-19
3994.99971 8.68111e-19
3996.00191 9.45277e-19
3997.00411 1.01886e-18
3997.99628 1.08797e-18
3998.99848 1.15198e-18
4000.00068 1.21270e-18
4001.00288 1.27202e-18
4001.99506 1.33345e-18
4002.99726 1.39997e-18
4003.99946 1.46592e-18
4005.00166 1.52840e-18
4006.00386 1.58098e-18
4006.99604 1.62361e-18
4007.99824 1.66268e-18
4009.00044 1.70211e-18
4010.00264 1.74975e-18
4011.00484 1.80385e-18
4011.99702 1.86157e-18
4012.99922 1.92075e-18
4014.00142 1.97779e-18
4015.00362 2.03398e-18
4015.99580 2.08967e-18
4016.99800 2.14496e-18
4018.00020 2.20018e-18
4019.00240 2.25618e-18
4020.00460 2.31364e-18
4020.99677 2.37416e-18
4021.99897 2.43739e-18
4023.00117 2.50131e-18
4024.00337 2.56455e-18
4024.99555 2.62458e-18
4025.99775 2.68203e-18
4026.99995 2.73783e-18
4028.00215 2.79273e-18
4029.00435 2.84797e-18
4029.99653 2.90308e-18
4030.99873 2.95803e-18
4032.00093 3.01264e-18
4033.00313 3.06687e-18
4033.99531 3.12167e-18
4034.99751 3.17755e-18
4035.99971 3.23562e-18
4037.00191 3.29561e-18
4038.00411 3.35620e-18
4038.99629 3.41651e-18
4039.99849 3.47493e-18
4041.00069 3.53196e-18
4042.00289 3.58821e-18
4042.99506 3.64416e-18
4043.99726 3.70039e-18
4044.99946 3.75748e-18
4046.00166 3.81597e-18
4047.00386 3.87673e-18
4047.99604 3.94019e-18
4048.99824 4.00487e-18
4050.00044 4.06992e-18
4051.00264 4.13361e-18
4052.00484 4.19590e-18
4052.99702 4.25790e-18
4053.99922 4.32015e-18
4055.00142 4.38403e-18
4056.00362 4.44862e-18
4056.99580 4.51301e-18
4057.99800 4.57636e-18
4059.00020 4.63752e-18
4060.00240 4.69763e-18
4061.00460 4.75734e-18
4061.99678 4.81755e-18
4062.99898 4.87889e-18
4064.00118 4.94078e-18
4065.00338 5.00303e-18
4065.99555 5.06531e-18
4066.99775 5.12745e-18
4067.99995 5.18942e-18
4069.00215 5.25112e-18
4070.00435 5.31239e-18
4070.99653 5.37322e-18
4071.99873 5.43364e-18
4073.00093 5.49365e-18
4074.00313 5.55326e-18
4074.99531 5.61257e-18
4075.99751 5.67168e-18
4076.99971 5.73075e-18
4078.00191 5.78986e-18
4079.00411 5.84846e-18
4079.99629 5.90629e-18
4080.99849 5.96266e-18
4082.00069 6.01783e-18
4083.00289 6.07259e-18
4083.99507 6.12745e-18
4084.99727 6.18341e-18
4085.99947 6.23993e-18
4087.00167 6.29646e-18
4088.00387 6.35254e-18
4088.99604 6.40755e-18
4089.99824 6.46171e-18
4091.00044 6.51507e-18
4092.00264 6.56760e-18
4093.00484 6.61942e-18
4093.99702 6.67101e-18
4094.99922 6.72268e-18
4096.00142 6.77518e-18
4097.00362 6.82824e-18
4097.99580 6.88117e-18
4098.99800 6.93346e-18
4100.00020 6.98413e-18
4101.00240 7.03395e-18
4102.00460 7.08362e-18
4102.99678 7.13385e-18
4103.99898 7.18553e-18
4105.00118 7.23782e-18
4106.00338 7.29030e-18
4106.99556 7.34233e-18
4107.99776 7.39355e-18
4108.99996 7.44461e-18
4110.00216 7.49576e-18
4111.00436 7.54756e-18
4111.99653 7.59985e-18
4112.99873 7.65216e-18
4114.00093 7.70416e-18
4115.00313 7.75528e-18
4115.99531 7.80589e-18
4116.99751 7.85630e-18
4117.99971 7.90684e-18
4119.00191 7.95791e-18
4120.00411 8.00906e-18
4120.99629 8.06007e-18
4121.99849 8.11058e-18
4123.00069 8.16045e-18
4124.00289 8.21004e-18
4124.99507 8.25948e-18
4125.99727 8.30914e-18
4126.99947 8.35891e-18
4128.00167 8.40858e-18
4129.00387 8.45797e-18
4129.99605 8.50679e-18
4130.99825 8.55527e-18
4132.00045 8.60360e-18
4133.00265 8.65201e-18
4134.00485 8.70078e-18
4134.99702 8.74943e-18
4135.99922 8.79770e-18
4137.00142 8.84510e-18
4138.00362 8.89155e-18
4138.99580 8.93786e-18
4139.99800 8.98448e-18
4141.00020 9.03237e-18
4142.00240 9.08118e-18
4143.00460 9.13010e-18
4143.99678 9.17857e-18
4144.99898 9.22551e-18
4146.00118 9.27172e-18
4147.00338 9.31785e-18
4147.99556 9.36455e-18
4148.99776 9.41259e-18
4149.99996 9.46120e-18
4151.00216 9.51003e-18
4152.00436 9.55850e-18
4152.99654 9.60638e-18
4153.99874 9.65430e-18
4155.00094 9.70251e-18
4156.00314 9.75164e-18
4156.99531 9.80143e-18
4157.99751 9.85136e-18
4158.99971 9.90107e-18
4160.00191 9.94984e-18
4161.00411 9.99835e-18
4161.99629 1.00471e-17
4162.99849 1.00968e-17
4164.00069 1.01479e-17
4165.00289 1.01997e-17
4165.99507 1.02517e-17
4166.99727 1.03043e-17
4167.99947 1.03573e-17
4169.00167 1.04082e-17
4170.00387 1.04565e-17
4170.99605 1.04936e-17
4171.99825 1.05315e-17
4173.00045 1.05874e-17
4174.00265 1.06745e-17
4174.99483 1.08189e-17
4175.99703 1.09895e-17
4176.99923 1.11611e-17
4178.00143 1.13063e-17
4179.00363 1.13961e-17
4179.99580 1.14578e-17
4180.99800 1.15031e-17
4182.00020 1.15511e-17
4183.00240 1.16113e-17
4184.00460 1.16745e-17
4184.99678 1.17400e-17
4185.99898 1.18039e-17
4187.00118 1.18668e-17
4188.00338 1.19300e-17
4188.99556 1.19934e-17
4189.99776 1.20572e-17
4190.99996 1.21214e-17
4192.00216 1.21860e-17
4193.00436 1.22511e-17
4193.99654 1.23166e-17
4194.99874 1.23825e-17
4196.00094 1.24487e-17
4197.00314 1.25154e-17
4197.99532 1.25824e-17
4198.99752 1.26497e-17
4199.99972 1.27176e-17
4201.00192 1.27858e-17
4202.00412 1.28547e-17
4202.99629 1.29242e-17
4203.99849 1.29944e-17
4205.00069 1.30657e-17
4206.00289 1.31377e-17
4206.99507 1.32103e-17
4207.99727 1.32833e-17
4208.99947 1.33566e-17
4210.00167 1.34301e-17
4211.00387 1.35037e-17
4211.99605 1.35775e-17
4212.99825 1.36512e-17
4214.00045 1.37251e-17
4215.00265 1.45743e-17
4216.00485 1.49034e-17
4216.99703 1.46566e-17
4217.99923 1.34217e-17
4219.00143 1.18264e-17
4220.00363 1.05905e-17
4220.99581 1.03085e-17
4221.99801 1.19664e-17
4223.00021 1.43283e-17
4224.00241 1.65622e-17
4225.00461 1.77251e-17
4225.99678 1.70319e-17
4226.99898 1.53968e-17
4228.00118 1.31970e-17
4229.00338 1.10323e-17
4229.99556 9.15595e-18
4230.99776 7.45604e-18
4231.99996 6.00538e-18
4233.00216 4.76396e-18
4234.00436 3.90945e-18
4234.99654 3.60147e-18
4235.99874 3.95265e-18
4237.00094 5.12546e-18
4238.00314 6.78832e-18
4238.99532 8.68612e-18
4239.99752 1.05429e-17
4240.99972 1.21056e-17
4242.00192 1.33193e-17
4243.00412 1.40846e-17
4243.99630 1.43621e-17
4244.99850 1.41062e-17
4246.00070 1.32852e-17
4247.00290 1.19247e-17
4247.99507 9.73379e-18
4248.99727 7.47724e-18
4249.99947 5.89572e-18
4251.00167 5.68805e-18
4252.00387 7.85790e-18
4252.99605 1.09452e-17
4253.99825 1.40391e-17
4255.00045 1.59344e-17
4256.00265 1.58346e-17
4257.00485 1.49626e-17
4257.99703 1.37907e-17
4258.99923 1.33447e-17
4260.00143 1.35304e-17
4261.00363 1.35729e-17
4261.99581 1.31049e-17
4262.99801 1.13382e-17
4264.00021 8.86749e-18
4265.00241 6.27833e-18
4266.00461 4.06006e-18
4266.99679 2.79513e-18
4267.99899 2.29311e-18
4269.00119 2.50446e-18
4270.00339 3.41915e-18
4270.99556 4.91880e-18
4271.99776 6.61794e-18
4272.99996 8.24575e-18
4274.00216 9.21143e-18
4275.00436 9.68738e-18
4275.99654 1.01925e-17
4276.99874 1.10331e-17
4278.00094 1.30052e-17
4279.00314 1.51980e-17
4279.99532 1.68340e-17
4280.99752 1.71772e-17
4281.99972 1.53537e-17
4283.00192 1.25485e-17
4284.00412 9.43603e-18
4284.99630 6.82812e-18
4285.99850 5.28434e-18
4287.00070 4.64215e-18
4288.00290 4.94194e-18
4288.99508 6.47178e-18
4289.99728 8.69934e-18
4290.99948 1.08146e-17
4292.00168 1.21758e-17
4293.00388 1.15213e-17
4293.99605 1.00226e-17
4294.99825 8.61741e-18
4296.00045 8.31180e-18
4297.00265 1.02724e-17
4297.99483 1.27406e-17
4298.99703 1.48396e-17
4299.99923 1.51544e-17
4301.00143 1.32658e-17
4302.00363 1.08410e-17
4302.99581 8.65516e-18
4303.99801 8.18003e-18
4305.00021 9.18326e-18
4306.00241 1.09236e-17
4307.00461 1.29889e-17
4307.99679 1.48890e-17
4308.99899 1.42414e-17
4310.00119 1.35939e-17
4311.00339 1.29467e-17
4311.99557 1.22997e-17
4312.99777 1.16528e-17
4313.99997 1.10062e-17
4315.00217 1.03599e-17
4316.00437 9.71386e-18
4316.99654 9.06823e-18
4317.99874 8.42302e-18
4319.00094 7.77825e-18
4320.00314 7.13394e-18
4320.99532 6.49014e-18
4321.99752 5.84683e-18
4322.99972 5.20401e-18
4324.00192 5.66690e-18
4325.00412 7.36483e-18
4325.99630 9.19284e-18
4326.99850 9.84392e-18
4328.00070 9.94804e-18
4329.00290 9.54481e-18
4330.00510 8.57367e-18
4330.99728 7.27830e-18
4331.99948 6.23476e-18
4333.00168 5.84366e-18
4334.00388 7.04074e-18
4334.99606 9.16748e-18
4335.99826 1.13514e-17
4337.00046 1.29086e-17
4338.00266 1.27634e-17
4339.00486 1.18303e-17
4339.99703 1.06842e-17
4340.99923 9.98285e-18
4342.00143 1.03030e-17
4343.00363 1.09953e-17
4343.99581 1.18275e-17
4344.99801 1.23550e-17
4346.00021 1.25221e-17
4347.00241 1.26696e-17
4348.00461 1.29236e-17
4348.99679 1.35709e-17
4349.99899 1.44210e-17
4351.00119 1.52386e-17
4352.00339 1.58624e-17
4352.99557 1.61460e-17
4353.99777 1.59217e-17
4354.99997 1.50807e-17
4356.00217 1.33963e-17
4357.00437 1.07979e-17
4357.99655 8.16035e-18
4358.99875 5.97895e-18
4360.00095 5.20086e-18
4361.00315 5.72564e-18
4361.99532 6.63913e-18
4362.99752 7.44009e-18
4363.99972 7.06462e-18
4365.00192 6.13336e-18
4366.00412 5.30100e-18
4366.99630 5.08580e-18
4367.99850 6.23927e-18
4369.00070 7.93813e-18
4370.00290 9.70820e-18
4370.99508 1.09980e-17
4371.99728 1.13966e-17
4372.99948 1.12209e-17
4374.00168 1.05549e-17
4375.00388 9.51941e-18
4375.99606 8.26846e-18
4376.99826 6.97146e-18
4378.00046 5.80084e-18
4379.00266 4.98117e-18
4380.00486 4.51490e-18
4380.99704 4.38404e-18
4381.99924 4.56631e-18
4383.00144 5.00690e-18
4384.00364 5.65715e-18
4384.99581 6.43610e-18
4385.99801 7.37611e-18
4387.00021 7.33912e-18
4388.00241 7.30230e-18
4389.00461 7.26563e-18
4389.99679 7.22912e-18
4390.99899 7.19274e-18
4392.00119 7.15650e-18
4393.00339 7.12039e-18
4393.99557 7.08440e-18
4394.99777 7.04854e-18
4395.99997 7.01281e-18
4397.00217 6.97719e-18
4398.00437 6.94168e-18
4398.99655 6.90629e-18
4399.99875 6.87101e-18
4401.00095 6.83582e-18
4402.00315 6.80073e-18
4402.99533 6.76573e-18
4403.99753 6.73082e-18
4404.99973 6.69600e-18
4406.00193 6.66128e-18
4407.00413 6.62668e-18
4407.99630 7.38694e-18
4408.99850 7.90869e-18
4410.00070 8.31933e-18
4411.00290 8.68343e-18
4411.99508 9.04398e-18
4412.99728 9.46777e-18
4413.99948 9.83729e-18
4415.00168 1.01024e-17
4416.00388 1.01869e-17
4416.99606 1.00802e-17
4417.99826 9.90284e-18
4419.00046 9.72087e-18
4420.00266 9.65822e-18
4420.99484 9.69744e-18
4421.99704 9.78107e-18
4422.99924 9.87643e-18
4424.00144 9.90009e-18
4425.00364 9.94991e-18
4425.99582 1.00929e-17
4426.99802 1.04051e-17
4428.00022 1.09625e-17
4429.00242 1.15765e-17
4430.00462 1.21430e-17
4430.99679 1.25063e-17
4431.99899 1.26204e-17
4433.00119 1.26206e-17
4434.00339 1.25696e-17
4434.99557 1.25352e-17
4435.99777 1.25788e-17
4436.99997 1.27469e-17
4438.00217 1.30917e-17
4439.00437 1.37648e-17
4439.99655 1.44322e-17
4440.99875 1.48489e-17
4442.00095 1.47213e-17
4443.00315 1.37920e-17
4443.99533 1.25696e-17
4444.99753 1.13227e-17
4445.99973 1.04548e-17
4447.00193 1.00984e-17
4448.00413 1.00222e-17
4448.99631 1.01395e-17
4449.99851 1.03510e-17
4451.00071 1.05270e-17
4452.00291 1.06038e-17
4453.00511 1.06807e-17
4453.99728 1.07578e-17
4454.99948 1.08351e-17
4456.00168 1.09126e-17
4457.00388 1.09902e-17
4457.99606 1.10681e-17
4458.99826 1.11462e-17
4460.00046 1.12245e-17
4461.00266 1.13030e-17
4462.00486 1.13817e-17
4462.99704 1.14607e-17
4463.99924 1.15399e-17
4465.00144 1.16193e-17
4466.00364 1.16989e-17
4466.99582 1.17788e-17
4467.99802 1.18588e-17
4469.00022 1.19391e-17
4470.00242 1.20195e-17
4471.00462 1.21001e-17
4471.99680 1.21809e-17
4472.99900 1.22620e-17
4474.00120 1.23432e-17
4475.00340 1.24246e-17
4475.99557 1.25062e-17
4476.99777 1.25881e-17
4477.99997 1.26701e-17
4479.00217 1.27524e-17
4480.00437 1.28349e-17
4480.99655 1.29175e-17
4481.99875 1.51048e-17
4483.00095 1.67170e-17
4484.00315 1.69229e-17
4484.99533 1.63857e-17
4485.99753 1.54600e-17
4486.99973 1.45821e-17
4488.00193 1.40914e-17
4489.00413 1.37157e-17
4489.99631 1.34112e-17
4490.99851 1.30383e-17
4492.00071 1.26169e-17
4493.00291 1.22430e-17
4493.99509 1.23016e-17
4494.99729 1.23605e-17
4495.99949 1.24195e-17
4497.00169 1.24789e-17
4498.00389 1.25384e-17
4498.99606 1.25982e-17
4499.99826 1.26582e-17
4501.00046 1.27182e-17
4502.00266 1.27784e-17
4503.00486 1.28388e-17
4503.99704 1.28993e-17
4504.99924 1.29599e-17
4506.00144 1.30208e-17
4507.00364 1.30817e-17
4507.99582 1.31428e-17
4508.99802 1.32040e-17
4510.00022 1.32653e-17
4511.00242 1.33268e-17
4512.00462 1.33884e-17
4512.99680 1.34501e-17
4513.99900 1.35120e-17
4515.00120 1.35741e-17
4516.00340 1.36363e-17
4516.99558 1.36986e-17
4517.99778 1.37610e-17
4518.99998 1.38236e-17
4520.00218 1.38863e-17
4521.00438 1.39492e-17
4521.99655 1.40122e-17
4522.99875 1.40753e-17
4524.00095 1.39880e-17
4525.00315 1.40778e-17
4525.99533 1.41679e-17
4526.99753 1.42581e-17
4527.99973 1.43485e-17
4529.00193 1.44391e-17
4530.00413 1.45299e-17
4530.99631 1.46208e-17
4531.99851 1.47119e-17
4533.00071 1.48032e-17
4534.00291 1.48945e-17
4534.99509 1.49860e-17
4535.99729 1.50777e-17
4536.99949 1.51694e-17
4538.00169 1.52614e-17
4539.00389 1.53535e-17
4539.99607 1.54458e-17
4540.99827 1.55383e-17
4542.00047 1.56309e-17
4543.00267 1.57237e-17
4543.99484 1.58167e-17
4544.99704 1.59099e-17
4545.99924 1.60033e-17
4547.00144 1.60968e-17
4548.00364 1.61904e-17
4548.99582 1.62843e-17
4549.99802 1.63783e-17
4551.00022 1.64724e-17
4552.00242 1.65667e-17
4553.00462 1.58525e-17
4553.99680 1.51836e-17
4554.99900 1.50552e-17
4556.00120 1.52110e-17
4557.00340 1.54992e-17
4557.99558 1.58111e-17
4558.99778 1.60296e-17
4559.99998 1.60457e-17
4561.00218 1.57795e-17
4562.00438 1.49757e-17
4562.99656 1.37492e-17
4563.99876 1.26842e-17
4565.00096 1.21168e-17
4566.00316 1.28003e-17
4566.99533 1.42635e-17
4567.99753 1.58533e-17
4568.99973 1.70646e-17
4570.00193 1.71141e-17
4571.00413 1.65674e-17
4571.99631 1.57733e-17
4572.99851 1.51179e-17
4574.00071 1.49601e-17
4575.00291 1.50035e-17
4576.00511 1.51692e-17
4576.99729 1.53188e-17
4577.99949 1.54036e-17
4579.00169 1.54774e-17
4580.00389 1.55403e-17
4580.99607 1.55505e-17
4581.99827 1.55901e-17
4583.00047 1.57397e-17
4584.00267 1.60790e-17
4585.00487 1.67775e-17
4585.99705 1.74705e-17
4586.99925 1.79140e-17
4588.00145 1.78113e-17
4589.00365 1.69591e-17
4589.99582 1.57569e-17
4590.99802 1.44213e-17
4592.00022 1.31802e-17
4593.00242 1.22542e-17
4594.00462 1.18305e-17
4594.99680 1.20656e-17
4595.99900 1.34077e-17
4597.00120 1.52662e-17
4598.00340 1.70175e-17
4598.99558 1.80859e-17
4599.99778 1.76616e-17
4600.99998 1.65823e-17
4602.00218 1.53416e-17
4603.00438 1.45621e-17
4603.99656 1.46969e-17
4604.99876 1.52374e-17
4606.00096 1.60085e-17
4607.00316 1.67348e-17
4607.99534 1.72882e-17
4608.99754 1.76496e-17
4609.99974 1.77508e-17
4611.00194 1.74458e-17
4612.00414 1.69330e-17
4612.99631 1.64176e-17
4613.99851 1.60828e-17
4615.00071 1.61326e-17
4616.00291 1.65178e-17
4616.99509 1.72117e-17
4617.99729 1.82675e-17
4618.99949 1.96083e-17
4620.00169 2.07265e-17
4621.00389 2.13202e-17
4621.99607 2.07793e-17
4622.99827 1.93053e-17
4624.00047 1.75182e-17
4625.00267 1.58269e-17
4626.00487 1.48553e-17
4626.99705 1.45186e-17
4627.99925 1.47268e-17
4629.00145 1.54460e-17
4630.00365 1.66271e-17
4630.99583 1.79159e-17
4631.99803 1.90358e-17
4633.00023 1.96130e-17
4634.00243 1.94581e-17
4635.00463 1.88762e-17
4635.99680 1.80106e-17
4636.99900 1.70656e-17
4638.00120 1.61772e-17
4639.00340 1.54451e-17
4639.99558 1.49842e-17
4640.99778 1.49780e-17
4641.99998 1.52557e-17
4643.00218 1.56580e-17
4644.00438 1.60275e-17
4644.99656 1.61906e-17
4645.99876 1.61658e-17
4647.00096 1.59333e-17
4648.00316 1.54715e-17
4648.99534 1.48025e-17
4649.99754 1.40176e-17
4650.99974 1.31988e-17
4652.00194 1.23881e-17
4653.00414 1.17350e-17
4653.99632 1.14037e-17
4654.99852 1.15275e-17
4656.00072 1.23595e-17
4657.00292 1.35640e-17
4657.99509 1.48633e-17
4658.99729 1.59566e-17
4659.99949 1.65293e-17
4661.00169 1.68476e-17
4662.00389 1.70091e-17
4662.99607 1.72216e-17
4663.99827 1.75280e-17
4665.00047 1.76765e-17
4666.00267 1.75728e-17
4666.99485 1.69234e-17
4667.99705 1.59785e-17
4668.99925 1.50962e-17
4670.00145 1.45462e-17
4671.00365 1.47820e-17
4671.99583 1.54038e-17
4672.99803 1.61283e-17
4674.00023 1.66436e-17
4675.00243 1.66453e-17
4676.00463 1.64567e-17
4676.99681 1.62024e-17
4677.99901 1.60884e-17
4679.00121 1.61732e-17
4680.00341 1.63085e-17
4680.99558 1.64393e-17
4681.99778 1.65228e-17
4682.99998 1.64753e-17
4684.00218 1.62236e-17
4685.00438 1.56898e-17
4685.99656 1.46763e-17
4686.99876 1.36241e-17
4688.00096 1.28414e-17
4689.00316 1.27213e-17
4689.99534 1.35695e-17
4690.99754 1.46962e-17
4691.99974 1.57521e-17
4693.00194 1.61370e-17
4694.00414 1.57721e-17
4694.99632 1.51316e-17
4695.99852 1.44353e-17
4697.00072 1.41194e-17
4698.00292 1.40669e-17
4699.00512 1.41135e-17
4699.99730 1.41498e-17
4700.99950 1.39598e-17
4702.00170 1.38049e-17
4703.00390 1.38216e-17
4703.99607 1.42391e-17
4704.99827 1.51854e-17
4706.00047 1.60124e-17
4707.00267 1.63973e-17
4708.00487 1.56667e-17
4708.99705 1.39714e-17
4709.99925 1.21252e-17
4711.00145 1.05995e-17
4712.00365 1.02500e-17
4712.99583 1.07312e-17
4713.99803 1.16290e-17
4715.00023 1.26370e-17
4716.00243 1.33511e-17
4717.00463 1.38383e-17
4717.99681 1.40779e-17
4718.99901 1.40062e-17
4720.00121 1.36259e-17
4721.00341 1.31803e-17
4721.99559 1.28215e-17
4722.99779 1.28255e-17
4723.99999 1.31701e-17
4725.00219 1.36391e-17
4726.00439 1.41133e-17
4726.99656 1.44220e-17
4727.99876 1.45479e-17
4729.00096 1.44883e-17
4730.00316 1.42089e-17
4730.99534 1.36387e-17
4731.99754 1.30897e-17
4732.99974 1.27607e-17
4734.00194 1.29464e-17
4735.00414 1.37698e-17
4735.99632 1.47537e-17
4736.99852 1.56532e-17
4738.00072 1.60582e-17
4739.00292 1.59495e-17
4739.99510 1.55164e-17
4740.99730 1.48484e-17
4741.99950 1.40730e-17
4743.00170 1.32710e-17
4744.00390 1.32333e-17
4744.99608 1.31953e-17
4745.99828 1.31572e-17
4747.00048 1.31188e-17
4748.00268 1.30802e-17
4749.00488 1.30413e-17
4749.99705 1.30022e-17
4750.99925 1.29629e-17
4752.00145 1.29234e-17
4753.00365 1.28836e-17
4753.99583 1.28436e-17
4754.99803 1.28034e-17
4756.00023 1.27629e-17
4757.00243 1.27222e-17
4758.00463 1.26812e-17
4758.99681 1.26401e-17
4759.99901 1.25987e-17
4761.00121 1.25571e-17
4762.00341 1.25152e-17
4762.99559 1.24732e-17
4763.99779 1.24310e-17
4764.99999 1.23887e-17
4766.00219 1.23461e-17
4767.00439 1.23033e-17
4767.99657 1.22603e-17
4768.99877 1.22171e-17
4770.00097 1.21738e-17
4771.00317 1.21303e-17
4771.99534 1.20867e-17
4772.99754 1.17622e-17
4773.99974 1.14492e-17
4775.00194 1.13977e-17
4776.00414 1.18789e-17
4776.99632 1.24488e-17
4777.99852 1.29025e-17
4779.00072 1.29205e-17
4780.00292 1.24305e-17
4780.99510 1.17782e-17
4781.99730 1.11290e-17
4782.99950 1.07592e-17
4784.00170 1.06672e-17
4785.00390 1.07803e-17
4785.99608 1.10732e-17
4786.99828 1.15415e-17
4788.00048 1.20239e-17
4789.00268 1.23915e-17
4789.99486 1.24744e-17
4790.99706 1.21225e-17
4791.99926 1.16742e-17
4793.00146 1.13012e-17
4794.00366 1.13226e-17
4794.99583 1.17609e-17
4795.99803 1.22439e-17
4797.00023 1.25923e-17
4798.00243 1.24205e-17
4799.00463 1.19162e-17
4799.99681 1.13524e-17
4800.99901 1.09220e-17
4802.00121 1.09205e-17
4803.00341 1.11498e-17
4803.99559 1.14905e-17
4804.99779 1.18191e-17
4805.99999 1.20169e-17
4807.00219 1.21420e-17
4808.00439 1.21946e-17
4808.99657 1.21893e-17
4809.99877 1.21293e-17
4811.00097 1.20039e-17
4812.00317 1.18180e-17
4812.99535 1.15596e-17
4813.99755 1.12780e-17
4814.99975 1.10271e-17
4816.00195 1.08514e-17
4817.00415 1.08005e-17
4817.99632 1.08617e-17
4818.99852 1.10242e-17
4820.00072 1.12863e-17
4821.00292 1.16305e-17
4822.00512 1.19559e-17
4822.99730 1.21958e-17
4823.99950 1.22492e-17
4825.00170 1.21074e-17
4826.00390 1.18396e-17
4826.99608 1.14858e-17
4827.99828 1.11097e-17
4829.00048 1.07337e-17
4830.00268 1.03810e-17
4831.00488 1.00777e-17
4831.99706 9.84010e-18
4832.99926 9.71771e-18
4834.00146 9.74261e-18
4835.00366 9.95138e-18
4835.99584 1.03564e-17
4836.99804 1.08810e-17
4838.00024 1.14720e-17
4839.00244 1.20786e-17
4840.00464 1.26377e-17
4840.99681 1.30843e-17
4841.99901 1.33650e-17
4843.00121 1.33820e-17
4844.00341 1.32216e-17
4844.99559 1.29738e-17
4845.99779 1.27219e-17
4846.99999 1.25714e-17
4848.00219 1.24627e-17
4849.00439 1.23732e-17
4849.99657 1.22757e-17
4850.99877 1.21478e-17
4852.00097 1.19976e-17
4853.00317 1.18222e-17
4853.99535 1.16045e-17
4854.99755 1.13636e-17
4855.99975 1.11348e-17
