# wavelength flux
3508.99906 1.11263e-17
3509.99896 1.10962e-17
3510.99887 1.10939e-17
3511.99876 1.11147e-17
3512.99867 1.11514e-17
3513.99856 1.11967e-17
3514.99847 1.12439e-17
3515.99836 1.12801e-17
3516.99827 1.12816e-17
3517.99816 1.12302e-17
3518.99806 1.11342e-17
3519.99797 1.10119e-17
3520.99786 1.08815e-17
3521.99777 1.07603e-17
3522.99766 1.06658e-17
3523.99757 1.06204e-17
3524.99746 1.06435e-17
3525.99737 1.07294e-17
3526.99726 1.08609e-17
3527.99716 1.10214e-17
3528.99707 1.11946e-17
3529.99696 1.13650e-17
3530.99687 1.15203e-17
3531.99676 1.16541e-17
3532.99667 1.17593e-17
3533.99656 1.18419e-17
3534.99647 1.19002e-17
3535.99636 1.19319e-17
3536.99626 1.19344e-17
3537.99617 1.19053e-17
3538.99606 1.18407e-17
3539.99597 1.17480e-17
3540.99586 1.16436e-17
3541.99577 1.15364e-17
3542.99566 1.14332e-17
3543.99557 1.13407e-17
3544.99546 1.12654e-17
3545.99536 1.12122e-17
3546.99527 1.11705e-17
3547.99516 1.11158e-17
3548.99507 1.10271e-17
3549.99496 1.09156e-17
3551.00486 1.07969e-17
3552.00476 1.06863e-17
3553.00466 1.05987e-17
3554.00456 1.05521e-17
3555.00446 1.05736e-17
3556.00436 1.06842e-17
3557.00426 1.08736e-17
3558.00416 1.11142e-17
3559.00406 1.13786e-17
3560.00396 1.16400e-17
3561.00386 1.18722e-17
3562.00376 1.20478e-17
3563.00366 1.21436e-17
3564.00356 1.21711e-17
3565.00346 1.21510e-17
3566.00336 1.20996e-17
3567.00326 1.20329e-17
3568.00316 1.19667e-17
3569.00306 1.19181e-17
3570.00296 1.19108e-17
3571.00286 1.19460e-17
3572.00276 1.20007e-17
3573.00266 1.20620e-17
3574.00256 1.21191e-17
3575.00246 1.21616e-17
3576.00236 1.21790e-17
3577.00226 1.21598e-17
3578.00216 1.20996e-17
3579.00206 1.20088e-17
3580.00196 1.19015e-17
3581.00186 1.17904e-17
3582.00176 1.16883e-17
3583.00166 1.16074e-17
3584.00156 1.15593e-17
3585.00146 1.15440e-17
3586.00136 1.15542e-17
3587.00126 1.15863e-17
3588.00116 1.16338e-17
3589.00106 1.16898e-17
3590.00096 1.17477e-17
3591.00086 1.18008e-17
3592.00076 1.18428e-17
3593.00066 1.18708e-17
3594.00056 1.18917e-17
3595.00046 1.19147e-17
3596.00036 1.19413e-17
3597.00026 1.19726e-17
3598.00016 1.20095e-17
3599.00006 1.20527e-17
3599.99996 1.20785e-17
3600.99986 1.20567e-17
3601.99976 1.20022e-17
3602.99966 1.19448e-17
3603.99956 1.18568e-17
3604.99946 1.17615e-17
3605.99936 1.16708e-17
3606.99926 1.15927e-17
3607.99916 1.15351e-17
3608.99906 1.15018e-17
3609.99896 1.14843e-17
3610.99886 1.14792e-17
3611.99876 1.14844e-17
3612.99866 1.14981e-17
3613.99856 1.15184e-17
3614.99846 1.15720e-17
3615.99836 1.16173e-17
3616.99826 1.16742e-17
3617.99816 1.17481e-17
3618.99806 1.18317e-17
3619.99796 1.19171e-17
3620.99786 1.19966e-17
3621.99776 1.20626e-17
3622.99766 1.21077e-17
3623.99756 1.21234e-17
3624.99746 1.21024e-17
3625.99736 1.20528e-17
3626.99726 1.18704e-17
3627.99716 1.17485e-17
3628.99706 1.16696e-17
3629.99696 1.16187e-17
3630.99686 1.16098e-17
3631.99676 1.16690e-17
3632.99666 1.17868e-17
3633.99656 1.19432e-17
3634.99646 1.21177e-17
3635.99636 1.22904e-17
3636.99626 1.24414e-17
3637.99616 1.25558e-17
3638.99606 1.26303e-17
3639.99596 1.26682e-17
3640.99586 1.26797e-17
3641.99576 1.26704e-17
3642.99566 1.26454e-17
3643.99556 1.26098e-17
3644.99546 1.25688e-17
3645.99536 1.25247e-17
3646.99526 1.24789e-17
3647.99516 1.24239e-17
3648.99506 1.23624e-17
3649.99496 1.23010e-17
3651.00486 1.22466e-17
3652.00476 1.22057e-17
3653.00466 1.21846e-17
3654.00456 1.21868e-17
3655.00446 1.22099e-17
3656.00436 1.22478e-17
3657.00426 1.22962e-17
3658.00416 1.23511e-17
3659.00406 1.24083e-17
3660.00396 1.24639e-17
3661.00386 1.25154e-17
3662.00376 1.25640e-17
3663.00366 1.26141e-17
3664.00356 1.26680e-17
3665.00346 1.27260e-17
3666.00336 1.27880e-17
3667.00326 1.28542e-17
3668.00316 1.29244e-17
3669.00306 1.29946e-17
3670.00296 1.30638e-17
3671.00286 1.31382e-17
3672.00276 1.32179e-17
3673.00266 1.33016e-17
3674.00256 1.33880e-17
3675.00246 1.34757e-17
3676.00236 1.35644e-17
3677.00226 1.36552e-17
3678.00216 1.37402e-17
3679.00206 1.38141e-17
3680.00196 1.38786e-17
3681.00186 1.39356e-17
3682.00176 1.39869e-17
3683.00166 1.40344e-17
3684.00156 1.40786e-17
3685.00146 1.41253e-17
3686.00136 1.41875e-17
3687.00126 1.42669e-17
3688.00116 1.43613e-17
3689.00106 1.44689e-17
3690.00096 1.45876e-17
3691.00086 1.47153e-17
3692.00076 1.48472e-17
3693.00066 1.49683e-17
3694.00056 1.50699e-17
3695.00046 1.51543e-17
3696.00036 1.52245e-17
3697.00026 1.52834e-17
3698.00016 1.53339e-17
3699.00006 1.53825e-17
3699.99996 1.54484e-17
3700.99986 1.55393e-17
3701.99976 1.56491e-17
3702.99966 1.57709e-17
3703.99956 1.58977e-17
3704.99946 1.60227e-17
3705.99936 1.61389e-17
3706.99926 1.62351e-17
3707.99916 1.63006e-17
3708.99906 1.63426e-17
3709.99896 1.63696e-17
3710.99886 1.63878e-17
3711.99876 1.64035e-17
3712.99866 1.64230e-17
3713.99856 1.64519e-17
3714.99846 1.64903e-17
3715.99836 1.65401e-17
3716.99826 1.66009e-17
3717.99816 1.66700e-17
3718.99806 1.67443e-17
3719.99796 1.68211e-17
3720.99786 1.68973e-17
3721.99776 1.69722e-17
3722.99766 1.70461e-17
3723.99756 1.71134e-17
3724.99746 1.71720e-17
3725.99736 1.72206e-17
3726.99726 1.72577e-17
3727.99716 1.72821e-17
3728.99706 1.72927e-17
3729.99696 1.72943e-17
3730.99686 1.72933e-17
3731.99676 1.72856e-17
3732.99666 1.72717e-17
3733.99656 1.72533e-17
3734.99646 1.72324e-17
3735.99636 1.72108e-17
3736.99626 1.71889e-17
3737.99616 1.71610e-17
3738.99606 1.71292e-17
3739.99596 1.70981e-17
3740.99586 1.70703e-17
3741.99576 1.70481e-17
3742.99566 1.70340e-17
3743.99556 1.70304e-17
3744.99546 1.70387e-17
3745.99536 1.70568e-17
3746.99526 1.70886e-17
3748.00516 1.71303e-17
3749.00506 1.71732e-17
3750.00496 1.72086e-17
3751.00486 1.72279e-17
3752.00476 1.72228e-17
3753.00466 1.71894e-17
3754.00456 1.71245e-17
3755.00446 1.70266e-17
3756.00436 1.69051e-17
3757.00426 1.67705e-17
3758.00416 1.66329e-17
3759.00406 1.65029e-17
3760.00396 1.63901e-17
3761.00386 1.63021e-17
3762.00376 1.62354e-17
3763.00366 1.61815e-17
3764.00356 1.61370e-17
3765.00346 1.60991e-17
3766.00336 1.60649e-17
3767.00326 1.60315e-17
3768.00316 1.59951e-17
3769.00306 1.59555e-17
3770.00296 1.59238e-17
3771.00286 1.59010e-17
3772.00276 1.58833e-17
3773.00266 1.58675e-17
3774.00256 1.58499e-17
3775.00246 1.58272e-17
3776.00236 1.57944e-17
3777.00226 1.57422e-17
3778.00216 1.56667e-17
3779.00206 1.55753e-17
3780.00196 1.54764e-17
3781.00186 1.53780e-17
3782.00176 1.52884e-17
3783.00166 1.52166e-17
3784.00156 1.51750e-17
3785.00146 1.51745e-17
3786.00136 1.52084e-17
3787.00126 1.52618e-17
3788.00116 1.53200e-17
3789.00106 1.53684e-17
3790.00096 1.53924e-17
3791.00086 1.53755e-17
3792.00076 1.53042e-17
3793.00066 1.51836e-17
3794.00056 1.50281e-17
3795.00046 1.48519e-17
3796.00036 1.46692e-17
3797.00026 1.44941e-17
3798.00016 1.43404e-17
3799.00006 1.42196e-17
3799.99996 1.41270e-17
3800.99986 1.40474e-17
3801.99976 1.39791e-17
3802.99966 1.39219e-17
3803.99956 1.38752e-17
3804.99946 1.38388e-17
3805.99936 1.38127e-17
3806.99926 1.37999e-17
3807.99916 1.38108e-17
3808.99906 1.38440e-17
3809.99896 1.38910e-17
3810.99886 1.39433e-17
3811.99876 1.39927e-17
3812.99866 1.40309e-17
3813.99856 1.40517e-17
3814.99846 1.40497e-17
3815.99836 1.40269e-17
3816.99826 1.39877e-17
3817.99816 1.39362e-17
3818.99806 1.38762e-17
3819.99796 1.38116e-17
3820.99786 1.37458e-17
3821.99776 1.36813e-17
3822.99766 1.36193e-17
3823.99756 1.35591e-17
3824.99746 1.35039e-17
3825.99736 1.34571e-17
3826.99726 1.34220e-17
3827.99716 1.34020e-17
3828.99706 1.33982e-17
3829.99696 1.34063e-17
3830.99686 1.34242e-17
3831.99676 1.34494e-17
3832.99666 1.34795e-17
3833.99656 1.35118e-17
3834.99646 1.35438e-17
3835.99636 1.35733e-17
3836.99626 1.36034e-17
3837.99616 1.36374e-17
3838.99606 1.36753e-17
3839.99596 1.37156e-17
3840.99586 1.37568e-17
3841.99576 1.37974e-17
3842.99566 1.38358e-17
3843.99556 1.38694e-17
3844.99546 1.38931e-17
3845.99536 1.39047e-17
3846.99526 1.39083e-17
3848.00516 1.39118e-17
3849.00506 1.39234e-17
3850.00496 1.39509e-17
3851.00486 1.40021e-17
3852.00476 1.40851e-17
3853.00466 1.42035e-17
3854.00456 1.43541e-17
3855.00446 1.45271e-17
3856.00436 1.47114e-17
3857.00426 1.48961e-17
3858.00416 1.50703e-17
3859.00406 1.52230e-17
3860.00396 1.53441e-17
3861.00386 1.54385e-17
3862.00376 1.55196e-17
3863.00366 1.55958e-17
3864.00356 1.56749e-17
3865.00346 1.57646e-17
3866.00336 1.58727e-17
3867.00326 1.60060e-17
3868.00316 1.61627e-17
3869.00306 1.63287e-17
3870.00296 1.64973e-17
3871.00286 1.66668e-17
3872.00276 1.68355e-17
3873.00266 1.70019e-17
3874.00256 1.71645e-17
3875.00246 1.73298e-17
3876.00236 1.75055e-17
3877.00226 1.76871e-17
3878.00216 1.78750e-17
3879.00206 1.80710e-17
3880.00196 1.82771e-17
3881.00186 1.84950e-17
3882.00176 1.87260e-17
3883.00166 1.89695e-17
3884.00156 1.92353e-17
3885.00146 1.95264e-17
3886.00136 1.98324e-17
3887.00126 2.01426e-17
3888.00116 2.04461e-17
3889.00106 2.07321e-17
3890.00096 2.09892e-17
3891.00086 2.12067e-17
3892.00076 2.13850e-17
3893.00066 2.15350e-17
3894.00056 2.16688e-17
3895.00046 2.17982e-17
3896.00036 2.19350e-17
3897.00026 2.20911e-17
3898.00016 2.22782e-17
3899.00006 2.25019e-17
3899.99996 2.27540e-17
3900.99986 2.30237e-17
3901.99976 2.33001e-17
3902.99966 2.35724e-17
3903.99956 2.38300e-17
3904.99946 2.40636e-17
3905.99936 2.42707e-17
3906.99926 2.44543e-17
3907.99916 2.46198e-17
3908.99906 2.47689e-17
3909.99896 2.49031e-17
3910.99886 2.50240e-17
3911.99876 2.51333e-17
3912.99866 2.52329e-17
3913.99856 2.53242e-17
3914.99846 2.54022e-17
3915.99836 2.54683e-17
3916.99826 2.55259e-17
3917.99816 2.55781e-17
3918.99806 2.56282e-17
3919.99796 2.56792e-17
3920.99786 2.57330e-17
3921.99776 2.57910e-17
3922.99766 2.58520e-17
3923.99756 2.59128e-17
3924.99746 2.59702e-17
3925.99736 2.60208e-17
3926.99726 2.60614e-17
3927.99716 2.60873e-17
3928.99706 2.60928e-17
3929.99696 2.60869e-17
3930.99686 2.60752e-17
3931.99676 2.60586e-17
3932.99666 2.60384e-17
3933.99656 2.60154e-17
3934.99646 2.59909e-17
3935.99636 2.59643e-17
3936.99626 2.59268e-17
3937.99616 2.58680e-17
3938.99606 2.57920e-17
3939.99596 2.57050e-17
3940.99586 2.56133e-17
3941.99576 2.55228e-17
3942.99566 2.54402e-17
3943.99556 2.53752e-17
3944.99546 2.53300e-17
3945.99536 2.52988e-17
3946.99526 2.52802e-17
3948.00516 2.52730e-17
3949.00506 2.52760e-17
3950.00496 2.52880e-17
3951.00486 2.53062e-17
3952.00476 2.53272e-17
3953.00466 2.53610e-17
3954.00456 2.54062e-17
3955.00446 2.54568e-17
3956.00436 2.55063e-17
3957.00426 2.55485e-17
3958.00416 2.55776e-17
3959.00406 2.55946e-17
3960.00396 2.56000e-17
3961.00386 2.55935e-17
3962.00376 2.55722e-17
3963.00366 2.55330e-17
3964.00356 2.54728e-17
3965.00346 2.53884e-17
3966.00336 2.52761e-17
3967.00326 2.51328e-17
3968.00316 2.49574e-17
3969.00306 2.47565e-17
3970.00296 2.45438e-17
3971.00286 2.43327e-17
3972.00276 2.41366e-17
3973.00266 2.39688e-17
3974.00256 2.38355e-17
3975.00246 2.37318e-17
3976.00236 2.36540e-17
3977.00226 2.35958e-17
3978.00216 2.35513e-17
3979.00206 2.35143e-17
3980.00196 2.34787e-17
3981.00186 2.34389e-17
3982.00176 2.33926e-17
3983.00166 2.33351e-17
3984.00156 2.32664e-17
3985.00146 2.31932e-17
3986.00136 2.31229e-17
3987.00126 2.30626e-17
3988.00116 2.30193e-17
3989.00106 2.30012e-17
3990.00096 2.30178e-17
3991.00086 2.30697e-17
3992.00076 2.31492e-17
3993.00066 2.32472e-17
3994.00056 2.33548e-17
3995.00046 2.34632e-17
3996.00036 2.35634e-17
3997.00026 2.36450e-17
3998.00016 2.37042e-17
3999.00006 2.37515e-17
3999.99996 2.37942e-17
4000.99986 2.38386e-17
4001.99976 2.38907e-17
4002.99966 2.39569e-17
4003.99956 2.40431e-17
4004.99946 2.41530e-17
4005.99936 2.42823e-17
4006.99926 2.44245e-17
4007.99916 2.45752e-17
4008.99906 2.47296e-17
4009.99896 2.48832e-17
4010.99886 2.50315e-17
4011.99876 2.51741e-17
4012.99866 2.53184e-17
4013.99856 2.54680e-17
4014.99846 2.56200e-17
4015.99836 2.57700e-17
4016.99826 2.59135e-17
4017.99816 2.60462e-17
4018.99806 2.61636e-17
4019.99796 2.62608e-17
4020.99786 2.63393e-17
4021.99776 2.64057e-17
4022.99766 2.64627e-17
4023.99756 2.65126e-17
4024.99746 2.65577e-17
4025.99736 2.66003e-17
4026.99726 2.66417e-17
4027.99716 2.66788e-17
4028.99706 2.67056e-17
4029.99696 2.67217e-17
4030.99686 2.67304e-17
4031.99676 2.67348e-17
4032.99666 2.67383e-17
4033.99656 2.67440e-17
4034.99646 2.67577e-17
4035.99636 2.67862e-17
4036.99626 2.68273e-17
4037.99616 2.68746e-17
4038.99606 2.69214e-17
4039.99596 2.69611e-17
4040.99586 2.69872e-17
4041.99576 2.69929e-17
4042.99566 2.69715e-17
4043.99556 2.69252e-17
4044.99546 2.68624e-17
4045.99536 2.67880e-17
4046.99526 2.67067e-17
4048.00516 2.66233e-17
4049.00506 2.65424e-17
4050.00496 2.64670e-17
4051.00486 2.63927e-17
4052.00476 2.63068e-17
4053.00466 2.62098e-17
4054.00456 2.61082e-17
4055.00446 2.60087e-17
4056.00436 2.59180e-17
4057.00426 2.58424e-17
4058.00416 2.57891e-17
4059.00406 2.57641e-17
4060.00396 2.57651e-17
4061.00386 2.57866e-17
4062.00376 2.58232e-17
4063.00366 2.58696e-17
4064.00356 2.59204e-17
4065.00346 2.59704e-17
4066.00336 2.60159e-17
4067.00326 2.60641e-17
4068.00316 2.61200e-17
4069.00306 2.61773e-17
4070.00296 2.62296e-17
4071.00286 2.62705e-17
4072.00276 2.62936e-17
4073.00266 2.62921e-17
4074.00256 2.62588e-17
4075.00246 2.61900e-17
4076.00236 2.60960e-17
4077.00226 2.59905e-17
4078.00216 2.58871e-17
4079.00206 2.57993e-17
4080.00196 2.57409e-17
4081.00186 2.57262e-17
4082.00176 2.57590e-17
4083.00166 2.58265e-17
4084.00156 2.59151e-17
4085.00146 2.60115e-17
4086.00136 2.61025e-17
4087.00126 2.61750e-17
4088.00116 2.62163e-17
4089.00106 2.62204e-17
4090.00096 2.61978e-17
4091.00086 2.61597e-17
4092.00076 2.61124e-17
4093.00066 2.60621e-17
4094.00056 2.60151e-17
4095.00046 2.59775e-17
4096.00036 2.59534e-17
4097.00026 2.59394e-17
4098.00016 2.59287e-17
4099.00006 2.59174e-17
4099.99996 2.59024e-17
4100.99986 2.58806e-17
4101.99976 2.58490e-17
4102.99966 2.58046e-17
4103.99956 2.57480e-17
4104.99946 2.56822e-17
4105.99936 2.56093e-17
4106.99926 2.55325e-17
4107.99916 2.54552e-17
4108.99906 2.53808e-17
4109.99896 2.53126e-17
4110.99886 2.52534e-17
4111.99876 2.52021e-17
4112.99866 2.51569e-17
4113.99856 2.51148e-17
4114.99846 2.50728e-17
4115.99836 2.50277e-17
4116.99826 2.49764e-17
4117.99816 2.49159e-17
4118.99806 2.48432e-17
4119.99796 2.47575e-17
4120.99786 2.46602e-17
4121.99776 2.45567e-17
4122.99766 2.44528e-17
4123.99756 2.43542e-17
4124.99746 2.42666e-17
4125.99736 2.41951e-17
4126.99726 2.41392e-17
4127.99716 2.40989e-17
4128.99706 2.40727e-17
4129.99696 2.40572e-17
4130.99686 2.40488e-17
4131.99676 2.40441e-17
4132.99666 2.40398e-17
4133.99656 2.40344e-17
4134.99646 2.40298e-17
4135.99636 2.40236e-17
4136.99626 2.40144e-17
4137.99616 2.40008e-17
4138.99606 2.39812e-17
4139.99596 2.39542e-17
4140.99586 2.39183e-17
4141.99576 2.38735e-17
4142.99566 2.38243e-17
4143.99556 2.37738e-17
4144.99546 2.37237e-17
4145.99536 2.36757e-17
4147.00526 2.36315e-17
4148.00516 2.35928e-17
4149.00506 2.35611e-17
4150.00496 2.35363e-17
4151.00486 2.35160e-17
4152.00476 2.34968e-17
4153.00466 2.34737e-17
4154.00456 2.34419e-17
4155.00446 2.33966e-17
4156.00436 2.33331e-17
4157.00426 2.32496e-17
4158.00416 2.31526e-17
4159.00406 2.30475e-17
4160.00396 2.29342e-17
4161.00386 2.28120e-17
4162.00376 2.26803e-17
4163.00366 2.25383e-17
4164.00356 2.23847e-17
4165.00346 2.22113e-17
4166.00336 2.20079e-17
4167.00326 2.17773e-17
4168.00316 2.15310e-17
4169.00306 2.12810e-17
4170.00296 2.10392e-17
4171.00286 2.08174e-17
4172.00276 2.06265e-17
4173.00266 2.04716e-17
4174.00256 2.03472e-17
4175.00246 2.02452e-17
4176.00236 2.01594e-17
4177.00226 2.00834e-17
4178.00216 2.00107e-17
4179.00206 1.99352e-17
4180.00196 1.98517e-17
4181.00186 1.97592e-17
4182.00176 1.96620e-17
4183.00166 1.95639e-17
4184.00156 1.94682e-17
4185.00146 1.93781e-17
4186.00136 1.92972e-17
4187.00126 1.92287e-17
4188.00116 1.91767e-17
4189.00106 1.91443e-17
4190.00096 1.91284e-17
4191.00086 1.91225e-17
4192.00076 1.91200e-17
4193.00066 1.91144e-17
4194.00056 1.90992e-17
4195.00046 1.90680e-17
4196.00036 1.90177e-17
4197.00026 1.89538e-17
4198.00016 1.88811e-17
4199.00006 1.88029e-17
4199.99996 1.87228e-17
4200.99986 1.86443e-17
4201.99976 1.85706e-17
4202.99966 1.85024e-17
4203.99956 1.84325e-17
4204.99946 1.83560e-17
4205.99936 1.82777e-17
4206.99926 1.82030e-17
4207.99916 1.81375e-17
4208.99906 1.80864e-17
4209.99896 1.80555e-17
4210.99886 1.80510e-17
4211.99876 1.80729e-17
4212.99866 1.81156e-17
4213.99856 1.81734e-17
4214.99846 1.82403e-17
4215.99836 1.83106e-17
4216.99826 1.83785e-17
4217.99816 1.84375e-17
4218.99806 1.84856e-17
4219.99796 1.85317e-17
4220.99786 1.85792e-17
4221.99776 1.86305e-17
4222.99766 1.86877e-17
4223.99756 1.87530e-17
4224.99746 1.88289e-17
4225.99736 1.89194e-17
4226.99726 1.90178e-17
4227.99716 1.91172e-17
4228.99706 1.92162e-17
4229.99696 1.93141e-17
4230.99686 1.94096e-17
4231.99676 1.95020e-17
4232.99666 1.95913e-17
4233.99656 1.96851e-17
4234.99646 1.97932e-17
4235.99636 1.99140e-17
4236.99626 2.00430e-17
4237.99616 2.01761e-17
4238.99606 2.03089e-17
4239.99596 2.04372e-17
4240.99586 2.05543e-17
4241.99576 2.06510e-17
4242.99566 2.07278e-17
4243.99556 2.07899e-17
4244.99546 2.08428e-17
4245.99536 2.08919e-17
4246.99526 2.09425e-17
4247.99516 2.10002e-17
4248.99506 2.10732e-17
4250.00496 2.11666e-17
4251.00486 2.12759e-17
4252.00476 2.13952e-17
4253.00466 2.15185e-17
4254.00456 2.16400e-17
4255.00446 2.17537e-17
4256.00436 2.18527e-17
4257.00426 2.19292e-17
4258.00416 2.19878e-17
4259.00406 2.20336e-17
4260.00396 2.20708e-17
4261.00386 2.21036e-17
4262.00376 2.21361e-17
4263.00366 2.21726e-17
4264.00356 2.22178e-17
4265.00346 2.22707e-17
4266.00336 2.23263e-17
4267.00326 2.23833e-17
4268.00316 2.24407e-17
4269.00306 2.24975e-17
4270.00296 2.25527e-17
4271.00286 2.26057e-17
4272.00276 2.26586e-17
4273.00266 2.27124e-17
4274.00256 2.27660e-17
4275.00246 2.28183e-17
4276.00236 2.28679e-17
4277.00226 2.29135e-17
4278.00216 2.29540e-17
4279.00206 2.29877e-17
4280.00196 2.30145e-17
4281.00186 2.30366e-17
4282.00176 2.30552e-17
4283.00166 2.30717e-17
4284.00156 2.30871e-17
4285.00146 2.31026e-17
4286.00136 2.31192e-17
4287.00126 2.31369e-17
4288.00116 2.31522e-17
4289.00106 2.31641e-17
4290.00096 2.31735e-17
4291.00086 2.31816e-17
4292.00076 2.31894e-17
4293.00066 2.31981e-17
4294.00056 2.32082e-17
4295.00046 2.32196e-17
4296.00036 2.32329e-17
4297.00026 2.32491e-17
4298.00016 2.32692e-17
4299.00006 2.32946e-17
4299.99996 2.33265e-17
4300.99986 2.33660e-17
4301.99976 2.34145e-17
4302.99966 2.34724e-17
4303.99956 2.35386e-17
4304.99946 2.36092e-17
4305.99936 2.36800e-17
4306.99926 2.37468e-17
4307.99916 2.38056e-17
4308.99906 2.38523e-17
4309.99896 2.38852e-17
4310.99886 2.39074e-17
4311.99876 2.39225e-17
4312.99866 2.39338e-17
4313.99856 2.39447e-17
4314.99846 2.39583e-17
4315.99836 2.39780e-17
4316.99826 2.40064e-17
4317.99816 2.40437e-17
4318.99806 2.40871e-17
4319.99796 2.41332e-17
4320.99786 2.41788e-17
4321.99776 2.42202e-17
4322.99766 2.42542e-17
4323.99756 2.42773e-17
4324.99746 2.42876e-17
4325.99736 2.42838e-17
4326.99726 2.42675e-17
4327.99716 2.42444e-17
4328.99706 2.42204e-17
4329.99696 2.42012e-17
4330.99686 2.41928e-17
4331.99676 2.42009e-17
4332.99666 2.42308e-17
4333.99656 2.42832e-17
4334.99646 2.43511e-17
4335.99636 2.44258e-17
4336.99626 2.44985e-17
4337.99616 2.45603e-17
4338.99606 2.46027e-17
4339.99596 2.46170e-17
4340.99586 2.46014e-17
4341.99576 2.45651e-17
4342.99566 2.45148e-17
4343.99556 2.44566e-17
4344.99546 2.43966e-17
4345.99536 2.43411e-17
4347.00526 2.42961e-17
4348.00516 2.42674e-17
4349.00506 2.42496e-17
4350.00496 2.42352e-17
4351.00486 2.42191e-17
4352.00476 2.41966e-17
4353.00466 2.41628e-17
4354.00456 2.41131e-17
4355.00446 2.40429e-17
4356.00436 2.39509e-17
4357.00426 2.38395e-17
4358.00416 2.37159e-17
4359.00406 2.35888e-17
4360.00396 2.34668e-17
4361.00386 2.33581e-17
4362.00376 2.32713e-17
4363.00366 2.32099e-17
4364.00356 2.31720e-17
4365.00346 2.31547e-17
4366.00336 2.31510e-17
4367.00326 2.31533e-17
4368.00316 2.31543e-17
4369.00306 2.31465e-17
4370.00296 2.31236e-17
4371.00286 2.30868e-17
4372.00276 2.30390e-17
4373.00266 2.29816e-17
4374.00256 2.29147e-17
4375.00246 2.28391e-17
4376.00236 2.27549e-17
